dist vxRef thetaRef YRef vx theta Y steer Tfl Tfr Trl Trrr dT
0.000000 2.000000 -0.000000 0.100000 2.000000 0.000000 0.100000 0.007007 4.451166 4.453918 4.364114 4.364952 0.003590
0.099732 2.000272 -0.000000 0.100000 1.988719 0.000000 0.100000 0.010772 6.895657 6.899920 6.762637 6.763970 0.005596
0.198870 2.001166 -0.000001 0.100000 1.976796 0.000000 0.100000 0.011716 8.422260 8.426137 8.264019 8.264314 0.004171
0.297832 2.002289 -0.000001 0.100000 1.982556 0.001030 0.100003 0.007061 8.971853 8.969381 8.802657 8.796156 -0.008972
0.397128 2.003119 -0.000001 0.100000 1.989308 0.003166 0.100011 0.004678 9.053033 9.046725 8.879389 8.868879 -0.016819
0.497137 2.003259 -0.000002 0.100000 2.011819 0.006403 0.100024 -0.001720 8.400230 8.385515 8.228477 8.209501 -0.033691
0.598313 2.002202 -0.000003 0.100000 2.035227 0.010560 0.100045 -0.005828 7.364847 7.344144 7.197364 7.172555 -0.045511
0.700718 1.999827 -0.000004 0.100000 2.061103 0.013975 0.100070 -0.008380 6.031866 6.007305 5.870026 5.841681 -0.052905
0.804423 1.995998 -0.000007 0.100000 2.087123 0.016330 0.100099 -0.010507 4.514969 4.487419 4.359258 4.328327 -0.058481
0.909270 1.990813 -0.000010 0.100000 2.106391 0.016644 0.100127 -0.008386 3.081116 3.056086 2.930281 2.902419 -0.052892
1.015061 1.984417 -0.000016 0.100000 2.125253 0.014966 0.100153 -0.007303 1.651219 1.628197 1.505009 1.479679 -0.048350
1.121527 1.977038 -0.000024 0.100000 2.132755 0.011779 0.100174 -0.002646 0.549387 0.532928 0.405513 0.387304 -0.034668
1.228335 1.968985 -0.000037 0.100000 2.139566 0.007461 0.100187 0.000205 -0.416314 -0.427831 -0.558290 -0.571096 -0.024324
1.335214 1.960517 -0.000057 0.100000 2.134974 0.003213 0.100194 0.004498 -0.972137 -0.977101 -1.114419 -1.120297 -0.010843
1.441830 1.951973 -0.000086 0.100000 2.129686 -0.000621 0.100194 0.006880 -1.335657 -1.336257 -1.478595 -1.479866 -0.001871
1.547988 1.943567 -0.000132 0.100000 2.116170 -0.003095 0.100191 0.008884 -1.345360 -1.342482 -1.490424 -1.488125 0.005177
1.653446 1.935570 -0.000200 0.099999 2.102155 -0.004158 0.100186 0.009340 -1.175506 -1.171245 -1.322853 -1.319205 0.007909
1.758117 1.928107 -0.000302 0.099999 2.084484 -0.003618 0.100182 0.008608 -0.789724 -0.785983 -0.939883 -0.936930 0.006694
1.861894 1.921326 -0.000455 0.099998 2.066593 -0.001696 0.100181 0.006966 -0.281781 -0.279976 -0.434725 -0.433973 0.002557
1.964791 1.915257 -0.000683 0.099998 2.049345 0.001130 0.100185 0.004233 0.284980 0.283259 0.129533 0.126416 -0.004838
2.066828 1.909926 -0.001022 0.099996 2.032135 0.004567 0.100195 0.001234 0.901425 0.895651 0.743621 0.736065 -0.013330
2.168089 1.905289 -0.001526 0.099995 2.018490 0.007851 0.100209 -0.002327 1.449905 1.439406 1.290518 1.277847 -0.023171
2.268678 1.901279 -0.002273 0.099992 2.005051 0.010804 0.100228 -0.005808 1.985363 1.970206 1.824573 1.806854 -0.032876
2.368706 1.897814 -0.003382 0.099988 1.996330 0.012738 0.100250 -0.009459 2.382616 2.362804 2.221336 2.198616 -0.042531
2.468312 1.894782 -0.005025 0.099982 1.987878 0.013657 0.100273 -0.013255 2.728478 2.703921 2.566861 2.539062 -0.052356
2.567597 1.892098 -0.007464 0.099973 1.983748 0.013119 0.100294 -0.017453 2.924931 2.895369 2.763750 2.730659 -0.062653
2.666687 1.889650 -0.011081 0.099961 1.979862 0.011271 0.100312 -0.022909 3.059473 3.023425 2.898833 2.858939 -0.075942
2.765653 1.887375 -0.016455 0.099941 1.978935 0.007806 0.100323 -0.030029 3.077853 3.033335 2.918252 2.869554 -0.093216
2.864581 1.885191 -0.024431 0.099913 1.978174 0.002936 0.100326 -0.041045 3.046800 2.988875 2.888316 2.825733 -0.120508
2.963502 1.883069 -0.036284 0.099871 1.978718 -0.003921 0.100316 -0.056599 2.955236 2.878004 2.798099 2.715568 -0.159762
3.062453 1.880968 -0.053885 0.099808 1.979336 -0.012557 0.100292 -0.081667 2.840906 2.732079 2.685253 2.570089 -0.223991
3.161433 1.878891 -0.080010 0.099715 1.979863 -0.024619 0.100243 -0.117075 2.723539 2.569414 2.569470 2.407532 -0.316063
3.260439 1.876838 -0.118771 0.099577 1.980385 -0.039914 0.100168 -0.173695 2.616116 2.389193 2.463986 2.226851 -0.464058
3.359449 1.874831 -0.176163 0.099372 1.979982 -0.062622 0.100048 -0.252152 2.551961 2.223165 2.401998 2.059629 -0.671165
3.458437 1.872896 -0.261044 0.099067 1.979527 -0.092481 0.099875 -0.375507 2.532736 2.043781 2.385803 1.877937 -0.996821
3.557375 1.871063 -0.386141 0.098617 1.977934 -0.139072 0.099608 -0.542293 2.588823 1.881535 2.445632 1.712161 -1.440759
3.656229 1.869368 -0.569959 0.097952 1.976279 -0.201827 0.099231 -0.798486 2.729383 1.687176 2.591792 1.512146 -2.121853
3.754979 1.867837 -0.838475 0.096971 1.973747 -0.301417 0.098652 -1.131814 2.966640 1.484361 2.836241 1.301751 -3.016769
3.853599 1.866502 -1.228033 0.095530 1.971179 -0.436436 0.097837 -1.623538 3.336147 1.204675 3.216365 1.010665 -4.337172
3.952076 1.865382 -1.787084 0.093423 1.968203 -0.649122 0.096593 -2.216929 3.807854 0.880314 3.701130 0.672321 -5.956350
4.050398 1.864498 -2.577482 0.090361 1.965270 -0.936067 0.094851 -3.025578 4.450159 0.433037 4.361308 0.205300 -8.173130
4.148551 1.863871 -3.670360 0.085952 1.962235 -1.376175 0.092234 -3.855800 5.133481 -0.040012 5.063788 -0.289050 -10.526330
4.246528 1.863516 -5.134316 0.079679 1.959456 -1.961433 0.088604 -4.818659 5.938940 -0.596280 5.891644 -0.872216 -13.299080
4.344278 1.863495 -7.004743 0.070916 1.956252 -2.813416 0.083325 -5.467573 6.560393 -0.992914 6.530196 -1.291239 -15.374742
4.441776 1.863844 -9.242952 0.058960 1.953858 -3.913864 0.076158 -5.925749 7.086506 -1.256348 7.069347 -1.577021 -16.989222
4.538880 1.864722 -11.672654 0.043205 1.950124 -5.377249 0.066299 -5.600154 7.100825 -1.029591 7.080757 -1.357402 -16.568575
4.635499 1.866241 -13.978977 0.023287 1.948037 -7.165380 0.053419 -4.754116 6.766631 -0.376415 6.730634 -0.701717 -14.575397
4.731460 1.868603 -15.743976 -0.000537 1.945292 -9.238647 0.037033 -3.101748 5.873372 0.908604 5.802256 0.605618 -10.161406
4.826606 1.872001 -16.602356 -0.027315 1.943854 -11.534334 0.016879 -0.959169 4.634259 2.717102 4.513670 2.452035 -3.978792
4.921003 1.876412 -16.373541 -0.055480 1.945419 -13.731796 -0.006549 1.276602 3.247840 4.738958 3.072247 4.521170 2.940041
5.014581 1.881940 -15.135037 -0.083015 1.945967 -15.769710 -0.033202 3.689284 1.747533 7.032155 1.510702 6.875140 10.649061
5.107795 1.888167 -13.165176 -0.108348 1.950108 -17.168694 -0.061498 5.300824 0.604939 8.745215 0.323543 8.640287 16.457020
5.200833 1.894912 -10.851848 -0.130237 1.953365 -17.925931 -0.090946 6.805712 -0.429900 10.320721 -0.752363 10.272620 21.775603
5.294255 1.901617 -8.538559 -0.148255 1.955527 -17.740442 -0.119585 7.098920 -0.811310 10.855102 -1.145939 10.841340 23.653690
5.388390 1.907918 -6.457301 -0.162493 1.960723 -16.694993 -0.146560 7.167103 -0.945158 11.045456 -1.284434 11.060195 24.335243
5.483540 1.913476 -4.733515 -0.173320 1.962942 -14.854797 -0.170431 6.284946 -0.452269 10.403083 -0.773147 10.421773 22.050272
5.579846 1.918090 -3.379471 -0.181341 1.969214 -12.377197 -0.190369 5.214635 0.296931 9.485172 0.000315 9.496424 18.684350
5.677260 1.921753 -2.365665 -0.187120 1.975756 -9.606335 -0.206020 3.890579 1.277556 8.283025 1.011958 8.273964 14.267476
5.775659 1.924534 -1.631410 -0.191199 1.982814 -6.680014 -0.216941 2.422387 2.401104 6.919897 2.170382 6.879636 9.228047
5.874846 1.926587 -1.112132 -0.194036 1.992537 -3.992253 -0.223803 1.310076 3.275723 5.707078 3.073302 5.638222 4.996276
5.974636 1.928062 -0.752762 -0.195978 2.000163 -1.600812 -0.226705 0.093481 4.141232 4.417252 3.969339 4.313143 0.619823
6.074886 1.929076 -0.506556 -0.197300 2.009057 0.250416 -0.226795 -0.521016 4.527405 3.485073 4.373960 3.357580 -2.058712
6.175499 1.929705 -0.339692 -0.198192 2.016448 1.591622 -0.224555 -1.177591 4.817351 2.562126 4.682447 2.409448 -4.528225
6.276418 1.929989 -0.227225 -0.198791 2.022538 2.379325 -0.221065 -1.293610 4.695389 2.035052 4.567375 1.870192 -5.357521
6.377607 1.929950 -0.151670 -0.199193 2.028418 2.696143 -0.216906 -1.404151 4.484026 1.581790 4.361432 1.406118 -5.857551
6.479026 1.929616 -0.101150 -0.199462 2.031592 2.636532 -0.212771 -1.198412 4.080801 1.441337 3.955893 1.263646 -5.331711
6.580625 1.929027 -0.067373 -0.199642 2.034898 2.289312 -0.209106 -0.968476 3.640569 1.391893 3.511603 1.214749 -4.545530
6.682347 1.928231 -0.044873 -0.199762 2.035515 1.797985 -0.206142 -0.665919 3.218866 1.506515 3.083128 1.333075 -3.462403
6.784116 1.927300 -0.029876 -0.199841 2.036039 1.225583 -0.204087 -0.339702 2.808993 1.689996 2.665375 1.522620 -2.261753
6.885879 1.926287 -0.019900 -0.199894 2.034629 0.691518 -0.202824 -0.102641 2.533489 1.898877 2.383165 1.736522 -1.281256
6.987570 1.925260 -0.013258 -0.199930 2.033012 0.221518 -0.202349 0.147133 2.297476 2.140599 2.140196 1.984630 -0.312442
7.089157 1.924254 -0.008839 -0.199953 2.030397 -0.124758 -0.202401 0.254019 2.213970 2.328035 2.052605 2.175554 0.237014
7.190608 1.923309 -0.005896 -0.199969 2.027673 -0.352401 -0.202859 0.361586 2.175273 2.519439 2.010156 2.370702 0.704712
7.291918 1.922434 -0.003935 -0.199979 2.024812 -0.458306 -0.203487 0.351901 2.244124 2.637373 2.077941 2.489571 0.804879
7.393085 1.921642 -0.002628 -0.199986 2.021955 -0.462571 -0.204152 0.336261 2.345641 2.744119 2.178908 2.596801 0.816373
7.494122 1.920925 -0.001755 -0.199991 2.019593 -0.394657 -0.204725 0.263255 2.486834 2.794163 2.321099 2.645685 0.631915
7.595043 1.920274 -0.001173 -0.199994 2.017275 -0.274846 -0.205119 0.183592 2.640378 2.828660 2.476055 2.678387 0.390614
7.695867 1.919676 -0.000784 -0.199996 2.015753 -0.139373 -0.205318 0.103029 2.775321 2.833645 2.612741 2.681290 0.126874
7.796618 1.919113 -0.000524 -0.199997 2.014275 -0.000502 -0.205294 0.018425 2.904112 2.824729 2.743476 2.669841 -0.153018
7.897313 1.918570 -0.000351 -0.199998 2.013565 0.115838 -0.205102 -0.034404 2.983617 2.808424 2.824460 2.651650 -0.348002
7.997974 1.918026 -0.000234 -0.199999 2.012893 0.206753 -0.204758 -0.087995 3.046603 2.782334 2.888927 2.623526 -0.529670
8.098613 1.917472 -0.000157 -0.199999 2.012743 0.262398 -0.204334 -0.103712 3.058851 2.760699 2.901937 2.600809 -0.599279
8.199246 1.916893 -0.000105 -0.199999 2.012621 0.286324 -0.203865 -0.117848 3.053445 2.733702 2.897179 2.572827 -0.644095
8.299878 1.916283 -0.000070 -0.200000 2.012697 0.281836 -0.203404 -0.105819 3.015110 2.714217 2.858917 2.553111 -0.606699
8.400514 1.915637 -0.000047 -0.200000 2.012786 0.254749 -0.202983 -0.091308 2.964489 2.693023 2.808230 2.531898 -0.547799
8.501153 1.914957 -0.000031 -0.200000 2.012790 0.214653 -0.202623 -0.067953 2.904465 2.677855 2.747875 2.517047 -0.457437
8.601792 1.914244 -0.000021 -0.200000 2.012790 0.166348 -0.202341 -0.042420 2.839983 2.663590 2.682958 2.503297 -0.356054
8.702425 1.913505 -0.000014 -0.200000 2.012530 0.119247 -0.202130 -0.021644 2.784801 2.653177 2.627354 2.493357 -0.265621
8.803045 1.912749 -0.000009 -0.200000 2.012255 0.075644 -0.201991 0.000381 2.732028 2.645349 2.574112 2.486118 -0.174673
8.903643 1.911983 -0.000006 -0.200000 2.011673 0.041114 -0.201906 0.011626 2.697662 2.640343 2.539436 2.481448 -0.115307
9.004212 1.911218 -0.000004 -0.200000 2.011072 0.015572 -0.201864 0.023166 2.669723 2.638817 2.511187 2.480285 -0.061808
9.104744 1.910461 -0.000003 -0.200000 2.010219 0.000185 -0.201847 0.024636 2.660108 2.640101 2.501436 2.481650 -0.039793
9.205234 1.909722 -0.000002 -0.200000 2.009351 -0.006491 -0.201844 0.025801 2.657778 2.645036 2.498995 2.486632 -0.025106
9.305676 1.909007 -0.000001 -0.200000 2.008346 -0.006273 -0.201842 0.021173 2.667888 2.652803 2.509106 2.494255 -0.029936
9.406068 1.908321 -0.000001 -0.200000 2.007332 -0.000830 -0.201833 0.016080 2.683796 2.663727 2.525042 2.504985 -0.040126
9.506409 1.907668 -0.000001 -0.200000 2.006307 0.007028 -0.201814 0.009836 2.704494 2.676782 2.545804 2.517782 -0.055735
9.606699 1.907050 -0.000000 -0.200000 2.005282 0.016150 -0.201780 0.003280 2.728430 2.692015 2.569819 2.532718 -0.073515
9.706940 1.906468 -0.000000 -0.200000 2.004345 0.024264 -0.201736 -0.001388 2.750814 2.707882 2.592264 2.548328 -0.086868
9.807134 1.905922 -0.000000 -0.200000 2.003414 0.030955 -0.201681 -0.006106 2.773962 2.724754 2.615475 2.564929 -0.099754
9.907284 1.905411 -0.000000 -0.200000 2.002629 0.035149 -0.201620 -0.007990 2.791993 2.740467 2.633533 2.580459 -0.104600
10.007396 1.904932 -0.000000 -0.200000 2.001851 0.037006 -0.201556 -0.009712 2.809116 2.756145 2.650677 2.595961 -0.107687
10.107473 1.904483 -0.000000 -0.200000 2.001231 0.036557 -0.201494 -0.009217 2.820360 2.769240 2.661914 2.608968 -0.104066
10.207519 1.904062 -0.000000 -0.200000 2.000619 0.034218 -0.201435 -0.008465 2.830035 2.781642 2.671572 2.621301 -0.098664
10.307538 1.903667 -0.000000 -0.200000 2.000140 0.030640 -0.201382 -0.006761 2.835014 2.790867 2.676528 2.630512 -0.090163
10.407533 1.903295 -0.000000 -0.200000 1.999669 0.026216 -0.201336 -0.004815 2.838606 2.799225 2.680085 2.638875 -0.080591
10.507507 1.902945 -0.000000 -0.200000 1.999290 0.021698 -0.201297 -0.003051 2.839515 2.804712 2.680971 2.644388 -0.071387
10.607462 1.902615 -0.000000 -0.200000 1.998917 0.017303 -0.201266 -0.001122 2.839703 2.809579 2.681128 2.649290 -0.061963
10.707400 1.902306 -0.000000 -0.200000 1.998596 0.013547 -0.201241 0.000015 2.839132 2.812513 2.680543 2.652252 -0.054909
10.807322 1.902016 -0.000000 -0.200000 1.998278 0.010456 -0.201220 0.001230 2.838621 2.815318 2.680012 2.655087 -0.048228
10.907229 1.901745 -0.000000 -0.200000 1.997983 0.008209 -0.201204 0.001588 2.838646 2.817315 2.680034 2.657093 -0.044272
11.007120 1.901495 -0.000000 -0.200000 1.997690 0.006707 -0.201190 0.001963 2.839359 2.819707 2.680738 2.659490 -0.040901
11.106998 1.901264 -0.000000 -0.200000 1.997406 0.005865 -0.201178 0.001756 2.841139 2.822191 2.682518 2.661960 -0.039507
11.206861 1.901055 -0.000000 -0.200000 1.997122 0.005549 -0.201166 0.001539 2.843945 2.825457 2.685322 2.665203 -0.038607
11.306710 1.900866 -0.000000 -0.200000 1.996848 0.005554 -0.201155 0.001106 2.847714 2.829254 2.689090 2.668967 -0.038583
11.406546 1.900699 -0.000000 -0.200000 1.996576 0.005776 -0.201144 0.000666 2.852556 2.833995 2.693927 2.673669 -0.038819
11.506368 1.900554 -0.000000 -0.200000 1.996323 0.006021 -0.201132 0.000286 2.857879 2.839223 2.699243 2.678856 -0.039043
11.606178 1.900430 -0.000000 -0.200000 1.996072 0.006238 -0.201121 -0.000084 2.864104 2.845336 2.705456 2.684922 -0.039302
11.705976 1.900328 -0.000000 -0.200000 1.995856 0.006318 -0.201109 -0.000273 2.870214 2.851552 2.711554 2.691098 -0.039118
11.805764 1.900247 -0.000000 -0.200000 1.995641 0.006257 -0.201097 -0.000437 2.876945 2.858438 2.718268 2.697942 -0.038833
11.905541 1.900187 -0.000000 -0.200000 1.995472 0.006035 -0.201086 -0.000434 2.883050 2.864921 2.724357 2.704392 -0.038095
12.005311 1.900146 -0.000000 -0.200000 1.995305 0.005675 -0.201076 -0.000397 2.889485 2.871799 2.730773 2.711237 -0.037222
12.105073 1.900124 -0.000000 -0.200000 1.995191 0.005216 -0.201066 -0.000279 2.894973 2.877842 2.736245 2.717256 -0.036120
12.204830 1.900120 -0.000000 -0.200000 1.995079 0.004686 -0.201057 -0.000125 2.900561 2.884032 2.741814 2.723422 -0.034921
12.304582 1.900132 -0.000000 -0.200000 1.995020 0.004141 -0.201049 0.000020 2.905092 2.889147 2.746330 2.728520 -0.033755
12.404332 1.900160 -0.000000 -0.200000 1.994963 0.003600 -0.201042 0.000194 2.909585 2.894241 2.750808 2.733598 -0.032553
12.504080 1.900201 -0.000000 -0.200000 1.994952 0.003108 -0.201036 0.000304 2.913085 2.898238 2.754298 2.737583 -0.031562
12.603827 1.900256 -0.000000 -0.200000 1.994945 0.002669 -0.201031 0.000435 2.916500 2.902141 2.757701 2.741474 -0.030585
12.703575 1.900323 -0.000000 -0.200000 1.994976 0.002304 -0.201026 0.000487 2.919096 2.905094 2.760289 2.744419 -0.029872
12.803325 1.900401 -0.000000 -0.200000 1.995009 0.002006 -0.201021 0.000552 2.921623 2.907959 2.762808 2.747274 -0.029198
12.903077 1.900489 0.000000 -0.200000 1.995072 0.001774 -0.201018 0.000555 2.923543 2.910109 2.764723 2.749414 -0.028743
13.002832 1.900586 0.000000 -0.200000 1.995136 0.001597 -0.201014 0.000568 2.925444 2.912219 2.766617 2.751514 -0.028327
13.102591 1.900692 0.000000 -0.200000 1.995222 0.001462 -0.201011 0.000546 2.926931 2.913850 2.768100 2.753136 -0.028045
13.202354 1.900805 0.000000 -0.200000 1.995310 0.001358 -0.201008 0.000531 2.928449 2.915498 2.769611 2.754774 -0.027788
13.302122 1.900925 0.000000 -0.200000 1.995414 0.001271 -0.201005 0.000508 2.929695 2.916848 2.770852 2.756114 -0.027585
13.401895 1.901051 0.000000 -0.200000 1.995518 0.001194 -0.201002 0.000491 2.931001 2.918254 2.772151 2.757509 -0.027389
13.501674 1.901183 0.000000 -0.200000 1.995636 0.001118 -0.201000 0.000484 2.932111 2.919466 2.773254 2.758710 -0.027189
13.601459 1.901320 0.000000 -0.200000 1.995753 0.001040 -0.200997 0.000505 2.933270 2.920753 2.774406 2.759987 -0.026936
13.701250 1.901462 0.000002 -0.200000 1.995882 0.000956 -0.200995 0.000637 2.934200 2.921934 2.775326 2.761160 -0.026431
13.801047 1.901607 0.000008 -0.200000 1.996011 0.000868 -0.200993 0.001296 2.934869 2.923455 2.775974 2.762680 -0.024708
13.900851 1.901755 0.000039 -0.200000 1.996150 0.000782 -0.200991 0.004515 2.933891 2.926263 2.774924 2.765527 -0.017025
14.000662 1.901907 0.000190 -0.200000 1.996289 0.000699 -0.200989 0.020394 2.925653 2.936338 2.766358 2.775831 0.020159
14.100480 1.902060 0.000941 -0.200000 1.996437 0.000740 -0.200987 0.098047 2.881790 2.981691 2.720921 2.822339 0.201320
14.200306 1.902215 0.004647 -0.199998 1.996585 0.000914 -0.200985 0.468314 2.669916 3.195298 2.501558 3.041505 1.065329
14.300139 1.902371 0.022954 -0.199990 1.996740 0.004070 -0.200973 1.992359 1.792688 4.075846 1.593438 3.945185 4.634906
14.399980 1.902527 0.113248 -0.199950 1.996896 0.010417 -0.200950 5.785363 -0.430289 6.321061 -0.707635 6.251548 13.710533
14.499827 1.902685 0.555264 -0.199752 1.997005 0.086685 -0.200706 9.529458 -2.906205 8.923799 -3.270010 8.934687 24.034701
14.599680 1.902844 2.640365 -0.198785 1.997149 0.237792 -0.200181 9.988455 -4.086799 10.414130 -4.488487 10.493434 29.482850
14.699299 1.903248 10.734293 -0.194233 1.989890 1.180092 -0.197081 7.662666 -3.427729 9.632680 -3.787010 9.730293 26.577711
14.798549 1.904051 26.187993 -0.175490 1.987591 3.040226 -0.190457 3.514674 -1.294587 7.477855 -1.569384 7.544791 17.886617
14.897003 1.905703 27.052747 -0.127515 1.976084 5.799956 -0.178900 -1.172244 2.531843 4.336734 2.363119 4.312881 3.754653
14.994172 1.908749 12.033583 -0.077724 1.971545 9.428081 -0.161148 -4.968822 6.971961 1.458941 6.894513 1.316700 -11.090832
15.090717 1.912580 3.136869 -0.056889 1.977792 12.410290 -0.140104 -6.741706 9.840191 -0.350310 9.815654 -0.578969 -20.585124
15.186706 1.917153 0.705830 -0.051537 1.978854 14.467411 -0.116201 -8.268873 12.031998 -1.665062 12.051515 -1.977531 -27.726107
15.282604 1.922025 0.154095 -0.050335 1.976330 15.127313 -0.092027 -7.981354 12.275070 -1.876772 12.303354 -2.220938 -28.676134
15.379040 1.926550 0.032913 -0.050072 1.978933 14.107536 -0.070022 -7.263600 11.804860 -1.537162 11.826672 -1.895305 -27.063999
15.476274 1.930437 0.006943 -0.050015 1.979719 11.918034 -0.051440 -5.557244 10.353860 -0.451768 10.345056 -0.790066 -21.940750
15.574506 1.933440 0.001432 -0.050003 1.986000 8.903746 -0.037531 -3.745721 8.698321 0.930852 8.649768 0.623322 -15.793915
15.673659 1.935586 0.000290 -0.050001 1.995040 5.732525 -0.028249 -2.081134 7.037146 2.294996 6.947700 2.022525 -9.667324
15.773546 1.937021 0.000058 -0.050000 2.002614 2.601685 -0.023998 -0.317896 5.300912 3.713073 5.166735 3.485387 -3.269187
15.873982 1.937900 0.000012 -0.050000 2.013262 0.026806 -0.023480 0.659976 4.012400 4.521928 3.849310 4.326079 0.986297
15.974804 1.938359 0.000002 -0.050000 2.021027 -1.954572 -0.026283 1.698099 2.725926 5.202053 2.534652 5.043244 4.984718
16.075938 1.938458 0.000000 -0.050000 2.028227 -3.179031 -0.030923 1.931489 1.980515 5.228767 1.779411 5.089842 6.558684
16.177356 1.938208 0.000000 -0.050000 2.034954 -3.731387 -0.036644 2.155590 1.329341 5.101081 1.121068 4.981247 7.631919
